Time (s),Height (mm)
0,0.00607
0.2769,0.6916
0.4273,0.9449
0.6969,1.688
0.9386,2.157
1.088,2.572
1.332,3.169
1.578,3.635
1.877,4.322
2.113,4.775
2.349,5.209
2.714,5.819
3.079,6.435
3.391,6.838
3.767,7.396
4.143,7.804
4.521,8.214
4.921,8.588
5.388,8.958
5.785,9.175
6.215,9.436
6.733,9.701
6.993,9.819
7.489,9.986
7.744,10.05
8.212,10.12
8.545,10.18
8.835,10.27
9.257,10.29
9.797,10.34
10.02,10.35
10.34,10.38
10.82,10.38
11.64,10.41
12.1,10.41
